# Matter power spectrum P(k) at redshift z=50
# for k=1.0653e-05 to 212.771 h/Mpc,
# number of wavenumbers equal to 135
#    1:k (h/Mpc)              2:P (Mpc/h)^3        
       1.065297608949e-05       6.788352681095e+01 
       1.341130231029e-05       3.448416157037e+01 
       1.688382928368e-05       1.759942485773e+01 
       2.125548173362e-05       9.293741282500e+00 
       2.675906609438e-05       5.065285819847e+00 
       3.368766830209e-05       2.886993781758e+00 
       4.241026168960e-05       1.744289141953e+00 
       5.339135616187e-05       1.158492261319e+00 
       6.721573504233e-05       8.382974368109e-01 
       8.461959691722e-05       6.650537242525e-01 
       1.065297608949e-04       5.847791046096e-01 
       1.341130231029e-04       5.661172797340e-01 
       1.688382928368e-04       5.884817799315e-01 
       2.125548173362e-04       6.498757643227e-01 
       2.675906609438e-04       7.473998235799e-01 
       3.368766830209e-04       8.839908085588e-01 
       4.241026168960e-04       1.065256513778e+00 
       5.339135616187e-04       1.298934444120e+00 
       6.721573504233e-04       1.595713043500e+00 
       8.461959691722e-04       1.968729295221e+00 
       1.065297608949e-03       2.433723260087e+00 
       1.341130231029e-03       3.008739418942e+00 
       1.688382928368e-03       3.713153986987e+00 
       2.125548173362e-03       4.565761595599e+00 
       2.675906609438e-03       5.580313304646e+00 
       3.368766830209e-03       6.760592078436e+00 
       4.241026168960e-03       8.094764545571e+00 
       5.339135616187e-03       9.552133143273e+00 
       6.721573504233e-03       1.107835795582e+01 
       8.461959691722e-03       1.257917642303e+01 
       1.065297608949e-02       1.390702377363e+01 
       1.341130231029e-02       1.487026601550e+01 
       1.688382928364e-02       1.523121329685e+01 
       2.125548150196e-02       1.476119876056e+01 
       2.675890332307e-02       1.335998412540e+01 
       3.366656121949e-02       1.125374995360e+01 
       4.174812847909e-02       9.179347903410e+00 
       4.845224332871e-02       8.008403287218e+00 
       5.333502158212e-02       7.423106978938e+00 
       5.737910415683e-02       7.051776663491e+00 
       6.099820005948e-02       6.767935040872e+00 
       6.437813162235e-02       6.518204027622e+00 
       6.761782965077e-02       6.275518092546e+00 
       7.077686273009e-02       6.025532223275e+00 
       7.389448284757e-02       5.761398604747e+00 
       7.699842267797e-02       5.481561186778e+00 
       8.010941563580e-02       5.188379704753e+00 
       8.324371480182e-02       4.887163170001e+00 
       8.641458889910e-02       4.585136655234e+00 
       8.963325723707e-02       4.290506434389e+00 
       9.290949883744e-02       4.011445504873e+00 
       9.625206312119e-02       3.755191625592e+00 
       9.966895476000e-02       3.527263017201e+00 
       1.031676359049e-01       3.330864867919e+00 
       1.067551724874e-01       3.166565127827e+00 
       1.104383416310e-01       3.032140303914e+00 
       1.142237113752e-01       2.922659090074e+00 
       1.181177002795e-01       2.830848408716e+00 
       1.221266221640e-01       2.747745483159e+00 
       1.262567197402e-01       2.663798024799e+00 
       1.305141898968e-01       2.570349989703e+00 
       1.349052027484e-01       2.461357859964e+00 
       1.394359161201e-01       2.334851806391e+00 
       1.441124868442e-01       2.193607107866e+00 
       1.489410800631e-01       2.044651935982e+00 
       1.539278775987e-01       1.897609867547e+00 
       1.590790863779e-01       1.762314153542e+00 
       1.644009478495e-01       1.646345999302e+00 
       1.698997492987e-01       1.553135862684e+00 
       1.755818379464e-01       1.481082385448e+00 
       1.814536387056e-01       1.423910123196e+00 
       1.875216764605e-01       1.372679953743e+00 
       1.937926037288e-01       1.317600840686e+00 
       2.002732345703e-01       1.251656409797e+00 
       2.069705856216e-01       1.174198720089e+00 
       2.138919251668e-01       1.090699353199e+00 
       2.210448312180e-01       1.009808402604e+00 
       2.284372596770e-01       9.392222950272e-01 
       2.360776238015e-01       8.825972228505e-01 
       2.439748864236e-01       8.382771111597e-01 
       2.521386666777e-01       8.001119791006e-01 
       2.605793634242e-01       7.607341385674e-01 
       2.693082981334e-01       7.158377288130e-01 
       2.783378807602e-01       6.665277771986e-01 
       2.876818031601e-01       6.181588469478e-01 
       2.973552659400e-01       5.761787799416e-01 
       3.073752464211e-01       5.419545267511e-01 
       3.177608177653e-01       5.123675505499e-01 
       3.285335325042e-01       4.828338596178e-01 
       3.397178880384e-01       4.511178903823e-01 
       3.513418976134e-01       4.190108159479e-01 
       3.634377985428e-01       3.897991770512e-01 
       3.760429411182e-01       3.646834159316e-01 
       3.892009183754e-01       3.416899832781e-01 
       4.029630213023e-01       3.185602430549e-01 
       4.173901403592e-01       2.954045738205e-01 
       4.325552892222e-01       2.738437885316e-01 
       4.485470120206e-01       2.543352976585e-01 
       4.654740710103e-01       2.357887365403e-01 
       4.834720332049e-01       2.174400560142e-01 
       5.027127475356e-01       1.999978811913e-01 
       5.234183539439e-01       1.837571263672e-01 
       5.458826421665e-01       1.679370449222e-01 
       5.705048023177e-01       1.526400189337e-01 
       5.978450290190e-01       1.379892960282e-01 
       6.287207309535e-01       1.236105726620e-01 
       6.643829030557e-01       1.095356413234e-01 
       7.068621400517e-01       9.550739400000e-02 
       7.597018663167e-01       8.134766651774e-02 
       8.296366180581e-01       6.674684585368e-02 
       9.305522312713e-01       5.143094401438e-02 
       1.090628146677e+00       3.569338268457e-02 
       1.344459231526e+00       2.187609211802e-02 
       1.690134455615e+00       1.268636026197e-02 
       2.127709730039e+00       7.266168134387e-03 
       2.678627697715e+00       4.127552613573e-03 
       3.372192477317e+00       2.327390740337e-03 
       4.245338803155e+00       1.303546505608e-03 
       5.344564900968e+00       7.256313824500e-04 
       6.728408568812e+00       4.017225521556e-04 
       8.470564528211e+00       2.212527782772e-04 
       1.066380893681e+01       1.213007375772e-04 
       1.342494005706e+01       6.622075377319e-05 
       1.690099818965e+01       3.601469077962e-05 
       2.127709610564e+01       1.951549536982e-05 
       2.678627697658e+01       1.054157085460e-05 
       3.372192477317e+01       5.676601895544e-06 
       4.245338803155e+01       3.048327771084e-06 
       5.344564900968e+01       1.632706287866e-06 
       6.728408568812e+01       8.721510837269e-07 
       8.470564528211e+01       4.647642009809e-07 
       1.066380893681e+02       2.469990280267e-07 
       1.342494005706e+02       1.308422924646e-07 
       1.690099818965e+02       6.906925627633e-08 
       2.127709610564e+02       3.627773053081e-08 
