# Matter power spectrum P(k) at redshift z=10
# for k=1.0653e-05 to 212.771 h/Mpc,
# number of wavenumbers equal to 135
#    1:k (h/Mpc)              2:P (Mpc/h)^3        
       1.065297608949e-05       2.557417228007e+00 
       1.341130231029e-05       2.093072356097e+00 
       1.688382928368e-05       1.854643060521e+00 
       2.125548173362e-05       1.927976626935e+00 
       2.675906609438e-05       2.081856417686e+00 
       3.368766830209e-05       2.365442387299e+00 
       4.241026168960e-05       2.758048669311e+00 
       5.339135616187e-05       3.318461319274e+00 
       6.721573504233e-05       4.033440875416e+00 
       8.461959691722e-05       4.919161492682e+00 
       1.065297608949e-04       6.050392843739e+00 
       1.341130231029e-04       7.484608844435e+00 
       1.688382928368e-04       9.277699728846e+00 
       2.125548173362e-04       1.153178488775e+01 
       2.675906609438e-04       1.434945538711e+01 
       3.368766830209e-04       1.786473757254e+01 
       4.241026168960e-04       2.224481533780e+01 
       5.339135616187e-04       2.769104743542e+01 
       6.721573504233e-04       3.444912901339e+01 
       8.461959691722e-04       4.280618940998e+01 
       1.065297608949e-03       5.309059140780e+01 
       1.341130231029e-03       6.565955605376e+01 
       1.688382928368e-03       8.087439707421e+01 
       2.125548173362e-03       9.906955996989e+01 
       2.675906609438e-03       1.205022823994e+02 
       3.368766830209e-03       1.452808816257e+02 
       4.241026168960e-03       1.732397889811e+02 
       5.339135616187e-03       2.037874336827e+02 
       6.721573504233e-03       2.357265131690e+02 
       8.461959691722e-03       2.670570003062e+02 
       1.065297608949e-02       2.947843355571e+02 
       1.341130231029e-02       3.147550732176e+02 
       1.688382928364e-02       3.220421925224e+02 
       2.125548150196e-02       3.119148378034e+02 
       2.675890332307e-02       2.821753153489e+02 
       3.366656121949e-02       2.376021726940e+02 
       4.174812847909e-02       1.937609331882e+02 
       4.845224332871e-02       1.690283674702e+02 
       5.333502158212e-02       1.566695964769e+02 
       5.737910415683e-02       1.488303799058e+02 
       6.099820005948e-02       1.428389504425e+02 
       6.437813162235e-02       1.375668904155e+02 
       6.761782965077e-02       1.324439977565e+02 
       7.077686273009e-02       1.271670591751e+02 
       7.389448284757e-02       1.215920383585e+02 
       7.699842267797e-02       1.156857295443e+02 
       8.010941563580e-02       1.094983833109e+02 
       8.324371480182e-02       1.031412801491e+02 
       8.641458889910e-02       9.676696808618e+01 
       8.963325723707e-02       9.054842971125e+01 
       9.290949883744e-02       8.465809816921e+01 
       9.625206312119e-02       7.924879110538e+01 
       9.966895476000e-02       7.443710740440e+01 
       1.031676359049e-01       7.029074017358e+01 
       1.067551724874e-01       6.682173052774e+01 
       1.104383416310e-01       6.398336805987e+01 
       1.142237113752e-01       6.167166051303e+01 
       1.181177002795e-01       5.973333408851e+01 
       1.221266221640e-01       5.797926346011e+01 
       1.262567197402e-01       5.620770301137e+01 
       1.305141898968e-01       5.423581184203e+01 
       1.349052027484e-01       5.193586195931e+01 
       1.394359161201e-01       4.926624416051e+01 
       1.441124868442e-01       4.628564079573e+01 
       1.489410800631e-01       4.314244706348e+01 
       1.539278775987e-01       4.003972933618e+01 
       1.590790863779e-01       3.718497900965e+01 
       1.644009478495e-01       3.473819546103e+01 
       1.698997492987e-01       3.277172983577e+01 
       1.755818379464e-01       3.125164093949e+01 
       1.814536387056e-01       3.004534007301e+01 
       1.875216764605e-01       2.896489827350e+01 
       1.937926037288e-01       2.780318548632e+01 
       2.002732345703e-01       2.641109635556e+01 
       2.069705856216e-01       2.477556441392e+01 
       2.138919251668e-01       2.301307590015e+01 
       2.210448312180e-01       2.130645032483e+01 
       2.284372596770e-01       1.981740408561e+01 
       2.360776238015e-01       1.862260104787e+01 
       2.439748864236e-01       1.768735063512e+01 
       2.521386666777e-01       1.688214620371e+01 
       2.605793634242e-01       1.605143518300e+01 
       2.693082981334e-01       1.510421010447e+01 
       2.783378807602e-01       1.406359771064e+01 
       2.876818031601e-01       1.304271591165e+01 
       2.973552659400e-01       1.215698792873e+01 
       3.073752464211e-01       1.143507264014e+01 
       3.177608177653e-01       1.081085580708e+01 
       3.285335325042e-01       1.018765844540e+01 
       3.397178880384e-01       9.518324320475e+00 
       3.513418976134e-01       8.840860064659e+00 
       3.634377985428e-01       8.224575904128e+00 
       3.760429411182e-01       7.694759023683e+00 
       3.892009183754e-01       7.209523472278e+00 
       4.029630213023e-01       6.721389250137e+00 
       4.173901403592e-01       6.232905046230e+00 
       4.325552892222e-01       5.778056471199e+00 
       4.485470120206e-01       5.366321382389e+00 
       4.654740710103e-01       4.975037895250e+00 
       4.834720332049e-01       4.587932646281e+00 
       5.027127475356e-01       4.219859044859e+00 
       5.234183539439e-01       3.877221751496e+00 
       5.458826421665e-01       3.543412173619e+00 
       5.705048023177e-01       3.220664996267e+00 
       5.978450290190e-01       2.911541142752e+00 
       6.287207309535e-01       2.608161032549e+00 
       6.643829030557e-01       2.311194231656e+00 
       7.068621400517e-01       2.015205730221e+00 
       7.597018663167e-01       1.716445773626e+00 
       8.296366180581e-01       1.408377956081e+00 
       9.305522312713e-01       1.085221417259e+00 
       1.090628146677e+00       7.531653609346e-01 
       1.344459231526e+00       4.616220528478e-01 
       1.690134455615e+00       2.677161342277e-01 
       2.127709730039e+00       1.533454639794e-01 
       2.678627697715e+00       8.711548532673e-02 
       3.372192477317e+00       4.912702867956e-02 
       4.245338803155e+00       2.751935204610e-02 
       5.344564900968e+00       1.532145304321e-02 
       6.728408568812e+00       8.483848551111e-03 
       8.470564528211e+00       4.673526243377e-03 
       1.066380893681e+01       2.562780323605e-03 
       1.342494005706e+01       1.399366499509e-03 
       1.690099818965e+01       7.612002147919e-04 
       2.127709610564e+01       4.125401808936e-04 
       2.678627697658e+01       2.228631825689e-04 
       3.372192477317e+01       1.200149337347e-04 
       4.245338803155e+01       6.444279327343e-05 
       5.344564900968e+01       3.450754047518e-05 
       6.728408568812e+01       1.842378769314e-05 
       8.470564528211e+01       9.809125073480e-06 
       1.066380893681e+02       5.205221296512e-06 
       1.342494005706e+02       2.750643361308e-06 
       1.690099818965e+02       1.446463885233e-06 
       2.127709610564e+02       7.552896155621e-07 
