# Matter power spectrum P(k) at redshift z=0.1
# for k=1.0653e-05 to 212.771 h/Mpc,
# number of wavenumbers equal to 135
#    1:k (h/Mpc)              2:P (Mpc/h)^3        
       1.065297608949e-05       4.712413802353e+01 
       1.341130231029e-05       5.163201105489e+01 
       1.688382928368e-05       6.410678949693e+01 
       2.125548173362e-05       8.154492236811e+01 
       2.675906609438e-05       1.008216875603e+02 
       3.368766830209e-05       1.278180352372e+02 
       4.241026168960e-05       1.591469376987e+02 
       5.339135616187e-05       1.989275322593e+02 
       6.721573504233e-05       2.485702872786e+02 
       8.461959691722e-05       3.101366049489e+02 
       1.065297608949e-04       3.867507798730e+02 
       1.341130231029e-04       4.823660935604e+02 
       1.688382928368e-04       6.014798111378e+02 
       2.125548173362e-04       7.500185480428e+02 
       2.675906609438e-04       9.350388503524e+02 
       3.368766830209e-04       1.165305052914e+03 
       4.241026168960e-04       1.451578675968e+03 
       5.339135616187e-04       1.806845928534e+03 
       6.721573504233e-04       2.246648020377e+03 
       8.461959691722e-04       2.789213459024e+03 
       1.065297608949e-03       3.455418829331e+03 
       1.341130231029e-03       4.268278697615e+03 
       1.688382928368e-03       5.251545373374e+03 
       2.125548173362e-03       6.427633842317e+03 
       2.675906609438e-03       7.813732871687e+03 
       3.368766830209e-03       9.416343478299e+03 
       4.241026168960e-03       1.122446261163e+04 
       5.339135616187e-03       1.319964599307e+04 
       6.721573504233e-03       1.526405986205e+04 
       8.461959691722e-03       1.728813385375e+04 
       1.065297608949e-02       1.907703332588e+04 
       1.341130231029e-02       2.036503581529e+04 
       1.688382928364e-02       2.083223904702e+04 
       2.125548150196e-02       2.016737207963e+04 
       2.675890332307e-02       1.823682765711e+04 
       3.366656121949e-02       1.534816540719e+04 
       4.174812847909e-02       1.250913092729e+04 
       4.845224332871e-02       1.090755455250e+04 
       5.333502158212e-02       1.010691418853e+04 
       5.737910415683e-02       9.598850516062e+03 
       6.099820005948e-02       9.210492874359e+03 
       6.437813162235e-02       8.868863254192e+03 
       6.761782965077e-02       8.537101307176e+03 
       7.077686273009e-02       8.195627263628e+03 
       7.389448284757e-02       7.835132717993e+03 
       7.699842267797e-02       7.453467799639e+03 
       8.010941563580e-02       7.053857914708e+03 
       8.324371480182e-02       6.643461904136e+03 
       8.641458889910e-02       6.232093805711e+03 
       8.963325723707e-02       5.830877946018e+03 
       9.290949883744e-02       5.450907020283e+03 
       9.625206312119e-02       5.102006840249e+03 
       9.966895476000e-02       4.791668168944e+03 
       1.031676359049e-01       4.524232031363e+03 
       1.067551724874e-01       4.300457981562e+03 
       1.104383416310e-01       4.117328570239e+03 
       1.142237113752e-01       3.968142065998e+03 
       1.181177002795e-01       3.843029999079e+03 
       1.221266221640e-01       3.729819424102e+03 
       1.262567197402e-01       3.615528064661e+03 
       1.305141898968e-01       3.488391868817e+03 
       1.349052027484e-01       3.340195514923e+03 
       1.394359161201e-01       3.168265206316e+03 
       1.441124868442e-01       2.976377620809e+03 
       1.489410800631e-01       2.774075303411e+03 
       1.539278775987e-01       2.574412096500e+03 
       1.590790863779e-01       2.390723642740e+03 
       1.644009478495e-01       2.233290808512e+03 
       1.698997492987e-01       2.106758120619e+03 
       1.755818379464e-01       2.008936008234e+03 
       1.814536387056e-01       1.931295555342e+03 
       1.875216764605e-01       1.861767177082e+03 
       1.937926037288e-01       1.787029071270e+03 
       2.002732345703e-01       1.697481586285e+03 
       2.069705856216e-01       1.592294505431e+03 
       2.138919251668e-01       1.478968801245e+03 
       2.210448312180e-01       1.369255568374e+03 
       2.284372596770e-01       1.273533823043e+03 
       2.360776238015e-01       1.196720240307e+03 
       2.439748864236e-01       1.136588981656e+03 
       2.521386666777e-01       1.084822187939e+03 
       2.605793634242e-01       1.031423324898e+03 
       2.693082981334e-01       9.705422902295e+02 
       2.783378807602e-01       9.036609583977e+02 
       2.876818031601e-01       8.380483305141e+02 
       2.973552659400e-01       7.811268336555e+02 
       3.073752464211e-01       7.347346161889e+02 
       3.177608177653e-01       6.946190911163e+02 
       3.285335325042e-01       6.545696774078e+02 
       3.397178880384e-01       6.115567690430e+02 
       3.513418976134e-01       5.680248027836e+02 
       3.634377985428e-01       5.284255824438e+02 
       3.760429411182e-01       4.943829249847e+02 
       3.892009183754e-01       4.632021872240e+02 
       4.029630213023e-01       4.318358993961e+02 
       4.173901403592e-01       4.004509547564e+02 
       4.325552892222e-01       3.712270645822e+02 
       4.485470120206e-01       3.447703139707e+02 
       4.654740710103e-01       3.196304377541e+02 
       4.834720332049e-01       2.947594734102e+02 
       5.027127475356e-01       2.711098966389e+02 
       5.234183539439e-01       2.490960545822e+02 
       5.458826421665e-01       2.276488488746e+02 
       5.705048023177e-01       2.069129335149e+02 
       5.978450290190e-01       1.870521717103e+02 
       6.287207309535e-01       1.675606470940e+02 
       6.643829030557e-01       1.484813089956e+02 
       7.068621400517e-01       1.294648326098e+02 
       7.597018663167e-01       1.102704549407e+02 
       8.296366180581e-01       9.047819804313e+01 
       9.305522312713e-01       6.971672341291e+01 
       1.090628146677e+00       4.838373703722e+01 
       1.344459231526e+00       2.965380777118e+01 
       1.690134455615e+00       1.719677666424e+01 
       2.127709730039e+00       9.849504351300e+00 
       2.678627697715e+00       5.594996222748e+00 
       3.372192477317e+00       3.154814515334e+00 
       4.245338803155e+00       1.766958716318e+00 
       5.344564900968e+00       9.835757623507e-01 
       6.728408568812e+00       5.445090329967e-01 
       8.470564528211e+00       2.998787163202e-01 
       1.066380893681e+01       1.643936538714e-01 
       1.342494005706e+01       8.973431536896e-02 
       1.690099818965e+01       4.879245099313e-02 
       2.127709610564e+01       2.643047836573e-02 
       2.678627697658e+01       1.426906854743e-02 
       3.372192477317e+01       7.677205526035e-03 
       4.245338803155e+01       4.116984081701e-03 
       5.344564900968e+01       2.200282094457e-03 
       6.728408568812e+01       1.171285282030e-03 
       8.470564528211e+01       6.207862691398e-04 
       1.066380893681e+02       3.271170400442e-04 
       1.342494005706e+02       1.710017615539e-04 
       1.690099818965e+02       8.845116259098e-05 
       2.127709610564e+02       4.505706129964e-05 
