# Matter power spectrum P(k) at redshift z=0.75
# for k=1.0653e-05 to 212.771 h/Mpc,
# number of wavenumbers equal to 135
#    1:k (h/Mpc)              2:P (Mpc/h)^3        
       1.065297608949e-05       2.567950882224e+01 
       1.341130231029e-05       2.660133144680e+01 
       1.688382928368e-05       3.292494563917e+01 
       2.125548173362e-05       4.218443702596e+01 
       2.675906609438e-05       5.192439841247e+01 
       3.368766830209e-05       6.624050596598e+01 
       4.241026168960e-05       8.240483504380e+01 
       5.339135616187e-05       1.030824950462e+02 
       6.721573504233e-05       1.288935422495e+02 
       8.461959691722e-05       1.608362590753e+02 
       1.065297608949e-04       2.005540748458e+02 
       1.341130231029e-04       2.501408794093e+02 
       1.688382928368e-04       3.118978285587e+02 
       2.125548173362e-04       3.889345610253e+02 
       2.675906609438e-04       4.848989720567e+02 
       3.368766830209e-04       6.043397980078e+02 
       4.241026168960e-04       7.528571467760e+02 
       5.339135616187e-04       9.371994485571e+02 
       6.721573504233e-04       1.165449205696e+03 
       8.461959691722e-04       1.447069354359e+03 
       1.065297608949e-03       1.792884185969e+03 
       1.341130231029e-03       2.214834775940e+03 
       1.688382928368e-03       2.725268654665e+03 
       2.125548173362e-03       3.335828299124e+03 
       2.675906609438e-03       4.055435186119e+03 
       3.368766830209e-03       4.887427493566e+03 
       4.241026168960e-03       5.825999189847e+03 
       5.339135616187e-03       6.851045662601e+03 
       6.721573504233e-03       7.921782595275e+03 
       8.461959691722e-03       8.970320778767e+03 
       1.065297608949e-02       9.894820598787e+03 
       1.341130231029e-02       1.055635799378e+04 
       1.688382928364e-02       1.078836807694e+04 
       2.125548150196e-02       1.043066096869e+04 
       2.675890332307e-02       9.417479622912e+03 
       3.366656121949e-02       7.913885974691e+03 
       4.174812847909e-02       6.444841642968e+03 
       4.845224332871e-02       5.620337144129e+03 
       5.333502158212e-02       5.210125779139e+03 
       5.737910415683e-02       4.951006895700e+03 
       6.099820005948e-02       4.753751391385e+03 
       6.437813162235e-02       4.580746001203e+03 
       6.761782965077e-02       4.413004850040e+03 
       7.077686273009e-02       4.240434286129e+03 
       7.389448284757e-02       4.058232744997e+03 
       7.699842267797e-02       3.865267412128e+03 
       8.010941563580e-02       3.663164730771e+03 
       8.324371480182e-02       3.455573628284e+03 
       8.641458889910e-02       3.247507695302e+03 
       8.963325723707e-02       3.044657604010e+03 
       9.290949883744e-02       2.852704453950e+03 
       9.625206312119e-02       2.676689369556e+03 
       9.966895476000e-02       2.520462443629e+03 
       1.031676359049e-01       2.386263637428e+03 
       1.067551724874e-01       2.274497917416e+03 
       1.104383416310e-01       2.183629427619e+03 
       1.142237113752e-01       2.110225113566e+03 
       1.181177002795e-01       2.049215737739e+03 
       1.221266221640e-01       1.994336543937e+03 
       1.262567197402e-01       1.938894565346e+03 
       1.305141898968e-01       1.876812192347e+03 
       1.349052027484e-01       1.803828394372e+03 
       1.394359161201e-01       1.718529746248e+03 
       1.441124868442e-01       1.622825665414e+03 
       1.489410800631e-01       1.521606141261e+03 
       1.539278775987e-01       1.421589975530e+03 
       1.590790863779e-01       1.329665637499e+03 
       1.644009478495e-01       1.251166758709e+03 
       1.698997492987e-01       1.188525308555e+03 
       1.755818379464e-01       1.140632098095e+03 
       1.814536387056e-01       1.103074741380e+03 
       1.875216764605e-01       1.069580193772e+03 
       1.937926037288e-01       1.033202002605e+03 
       2.002732345703e-01       9.889104786623e+02 
       2.069705856216e-01       9.362318559804e+02 
       2.138919251668e-01       8.790429995701e+02 
       2.210448312180e-01       8.234680647238e+02 
       2.284372596770e-01       7.749528477437e+02 
       2.360776238015e-01       7.361105598091e+02 
       2.439748864236e-01       7.058102251533e+02 
       2.521386666777e-01       6.797011808189e+02 
       2.605793634242e-01       6.525242714725e+02 
       2.693082981334e-01       6.211857048939e+02 
       2.783378807602e-01       5.864544189158e+02 
       2.876818031601e-01       5.521771596052e+02 
       2.973552659400e-01       5.223135142499e+02 
       3.073752464211e-01       4.978785026254e+02 
       3.177608177653e-01       4.766400614786e+02 
       3.285335325042e-01       4.553030854055e+02 
       3.397178880384e-01       4.322518027634e+02 
       3.513418976134e-01       4.087883458525e+02 
       3.634377985428e-01       3.873100590143e+02 
       3.760429411182e-01       3.687406292700e+02 
       3.892009183754e-01       3.516888103618e+02 
       4.029630213023e-01       3.343615831973e+02 
       4.173901403592e-01       3.169732120819e+02 
       4.325552892222e-01       3.006412735703e+02 
       4.485470120206e-01       2.857471809244e+02 
       4.654740710103e-01       2.714931897489e+02 
       4.834720332049e-01       2.573065248690e+02 
       5.027127475356e-01       2.437003007342e+02 
       5.234183539439e-01       2.308975997066e+02 
       5.458826421665e-01       2.182960624163e+02 
       5.705048023177e-01       2.059616666195e+02 
       5.978450290190e-01       1.939664477412e+02 
       6.287207309535e-01       1.819938169072e+02 
       6.643829030557e-01       1.700203752632e+02 
       7.068621400517e-01       1.577683203835e+02 
       7.597018663167e-01       1.449629520118e+02 
       8.296366180581e-01       1.311050887120e+02 
       9.305522312713e-01       1.154650783661e+02 
       1.090628146677e+00       9.731283596453e+01 
       1.344459231526e+00       7.771455450486e+01 
       1.690134455615e+00       6.007491475238e+01 
       2.127709730039e+00       4.526372436746e+01 
       2.678627697715e+00       3.305403641061e+01 
       3.372192477317e+00       2.336026336680e+01 
       4.245338803155e+00       1.601951705190e+01 
       5.344564900968e+00       1.070466316185e+01 
       6.728408568812e+00       6.996077534166e+00 
       8.470564528211e+00       4.484994614007e+00 
       1.066380893681e+01       2.828385693407e+00 
       1.342494005706e+01       1.758071557667e+00 
       1.690099818965e+01       1.078612168183e+00 
       2.127709610564e+01       6.540646712363e-01 
       2.678627697658e+01       3.924009967259e-01 
       3.372192477317e+01       2.331370600472e-01 
       4.245338803155e+01       1.372853567705e-01 
       5.344564900968e+01       8.018355842573e-02 
       6.728408568812e+01       4.648449451740e-02 
       8.470564528211e+01       2.676384535217e-02 
       1.066380893681e+02       1.531318713408e-02 
       1.342494005706e+02       8.711991105493e-03 
       1.690099818965e+02       4.930449181882e-03 
       2.127709610564e+02       2.776668651022e-03 
