# Matter power spectrum P(k) at redshift z=4
# for k=1.0653e-05 to 212.771 h/Mpc,
# number of wavenumbers equal to 135
#    1:k (h/Mpc)              2:P (Mpc/h)^3        
       1.065297608949e-05       3.627994198167e+00 
       1.341130231029e-05       4.261821496243e+00 
       1.688382928368e-05       4.740812101549e+00 
       2.125548173362e-05       5.890238167515e+00 
       2.675906609438e-05       7.435642918682e+00 
       3.368766830209e-05       9.324120072964e+00 
       4.241026168960e-05       1.166338872567e+01 
       5.339135616187e-05       1.464890958131e+01 
       6.721573504233e-05       1.831898670263e+01 
       8.461959691722e-05       2.283443652174e+01 
       1.065297608949e-04       2.846195208893e+01 
       1.341130231029e-04       3.550183928456e+01 
       1.688382928368e-04       4.425688534851e+01 
       2.125548173362e-04       5.518969448359e+01 
       2.675906609438e-04       6.881685481446e+01 
       3.368766830209e-04       8.578348741724e+01 
       4.241026168960e-04       1.068904350250e+02 
       5.339135616187e-04       1.331073306365e+02 
       6.721573504233e-04       1.656025306771e+02 
       8.461959691722e-04       2.057405461195e+02 
       1.065297608949e-03       2.550785186293e+02 
       1.341130231029e-03       3.153197472713e+02 
       1.688382928368e-03       3.882157598601e+02 
       2.125548173362e-03       4.754340336830e+02 
       2.675906609438e-03       5.782740340930e+02 
       3.368766830209e-03       6.972392946685e+02 
       4.241026168960e-03       8.315280174573e+02 
       5.339135616187e-03       9.783250016546e+02 
       6.721573504233e-03       1.131896342419e+03 
       8.461959691722e-03       1.282639109024e+03 
       1.065297608949e-02       1.416122615939e+03 
       1.341130231029e-02       1.512570812009e+03 
       1.688382928364e-02       1.548033648086e+03 
       2.125548150196e-02       1.499434520263e+03 
       2.675890332307e-02       1.356648257543e+03 
       3.366656121949e-02       1.142435288427e+03 
       4.174812847909e-02       9.316859428523e+02 
       4.845224332871e-02       8.127800320858e+02 
       5.333502158212e-02       7.533614820599e+02 
       5.737910415683e-02       7.156710512804e+02 
       6.099820005948e-02       6.868638411547e+02 
       6.437813162235e-02       6.615148676788e+02 
       6.761782965077e-02       6.368823830515e+02 
       7.077686273009e-02       6.115086060139e+02 
       7.389448284757e-02       5.847016316153e+02 
       7.699842267797e-02       5.563017649032e+02 
       8.010941563580e-02       5.265501937226e+02 
       8.324371480182e-02       4.959821144766e+02 
       8.641458889910e-02       4.653309708114e+02 
       8.963325723707e-02       4.354281792256e+02 
       9.290949883744e-02       4.071029457686e+02 
       9.625206312119e-02       3.810903401476e+02 
       9.966895476000e-02       3.579510800702e+02 
       1.031676359049e-01       3.380107152125e+02 
       1.067551724874e-01       3.213272704017e+02 
       1.104383416310e-01       3.076763620853e+02 
       1.142237113752e-01       2.965581276631e+02 
       1.181177002795e-01       2.872357199523e+02 
       1.221266221640e-01       2.787997836035e+02 
       1.262567197402e-01       2.702801764248e+02 
       1.305141898968e-01       2.607975682472e+02 
       1.349052027484e-01       2.497376540791e+02 
       1.394359161201e-01       2.369003244921e+02 
       1.441124868442e-01       2.225677612664e+02 
       1.489410800631e-01       2.074534888670e+02 
       1.539278775987e-01       1.925338704192e+02 
       1.590790863779e-01       1.788065743599e+02 
       1.644009478495e-01       1.670409579437e+02 
       1.698997492987e-01       1.575849054868e+02 
       1.755818379464e-01       1.502751302901e+02 
       1.814536387056e-01       1.444740305491e+02 
       1.875216764605e-01       1.392785743040e+02 
       1.937926037288e-01       1.336924454624e+02 
       2.002732345703e-01       1.269979244687e+02 
       2.069705856216e-01       1.191326058072e+02 
       2.138919251668e-01       1.106572740508e+02 
       2.210448312180e-01       1.024511377675e+02 
       2.284372596770e-01       9.529124569001e+01 
       2.360776238015e-01       8.954585749489e+01 
       2.439748864236e-01       8.504841293525e+01 
       2.521386666777e-01       8.117644536352e+01 
       2.605793634242e-01       7.718197781538e+01 
       2.693082981334e-01       7.262731608482e+01 
       2.783378807602e-01       6.762347582576e+01 
       2.876818031601e-01       6.271441476819e+01 
       2.973552659400e-01       5.845543572383e+01 
       3.073752464211e-01       5.498421759236e+01 
       3.177608177653e-01       5.198266698036e+01 
       3.285335325042e-01       4.898598219643e+01 
       3.397178880384e-01       4.576743822172e+01 
       3.513418976134e-01       4.250990436032e+01 
       3.634377985428e-01       3.954659510883e+01 
       3.760429411182e-01       3.699906765824e+01 
       3.892009183754e-01       3.466576396346e+01 
       4.029630213023e-01       3.231852969164e+01 
       4.173901403592e-01       2.996976880840e+01 
       4.325552892222e-01       2.778272382350e+01 
       4.485470120206e-01       2.580283869470e+01 
       4.654740710103e-01       2.392141441682e+01 
       4.834720332049e-01       2.206009174843e+01 
       5.027127475356e-01       2.029020877340e+01 
       5.234183539439e-01       1.864269592397e+01 
       5.458826421665e-01       1.703759948862e+01 
       5.705048023177e-01       1.548571598756e+01 
       5.978450290190e-01       1.399932929471e+01 
       6.287207309535e-01       1.254056720904e+01 
       6.643829030557e-01       1.111264688439e+01 
       7.068621400517e-01       9.689428878071e+00 
       7.597018663167e-01       8.252890572453e+00 
       8.296366180581e-01       6.771601824409e+00 
       9.305522312713e-01       5.217770556832e+00 
       1.090628146677e+00       3.621162264503e+00 
       1.344459231526e+00       2.219369812037e+00 
       1.690134455615e+00       1.287054557061e+00 
       2.127709730039e+00       7.371658895957e-01 
       2.678627697715e+00       4.187473602987e-01 
       3.372192477317e+00       2.361175813208e-01 
       4.245338803155e+00       1.322465693512e-01 
       5.344564900968e+00       7.361586985254e-02 
       6.728408568812e+00       4.075469244901e-02 
       8.470564528211e+00       2.244566076030e-02 
       1.066380893681e+01       1.230536136470e-02 
       1.342494005706e+01       6.717439072955e-03 
       1.690099818965e+01       3.653042270669e-03 
       2.127709610564e+01       1.979235067620e-03 
       2.678627697658e+01       1.068885199730e-03 
       3.372192477317e+01       5.753939582685e-04 
       4.245338803155e+01       3.088161412301e-04 
       5.344564900968e+01       1.652592544597e-04 
       6.728408568812e+01       8.815425080379e-05 
       8.470564528211e+01       4.687327212215e-05 
       1.066380893681e+02       2.482428431697e-05 
       1.342494005706e+02       1.307869531698e-05 
       1.690099818965e+02       6.846048788478e-06 
       2.127709610564e+02       3.549863086555e-06 
