# Matter power spectrum P(k) at redshift z=0.25
# for k=1.05577e-05 to 210.871 h/Mpc,
# number of wavenumbers equal to 135
#    1:k (h/Mpc)              2:P (Mpc/h)^3        
       1.055772783313e-05       3.555344511262e+01 
       1.329139185993e-05       4.683839227561e+01 
       1.673287097058e-05       5.802930757217e+01 
       2.106543647714e-05       7.225005746560e+01 
       2.651981329161e-05       8.943379934284e+01 
       3.338646686884e-05       1.123998501056e+02 
       4.203107155121e-05       1.409267936715e+02 
       5.291398406075e-05       1.762787410389e+02 
       6.661475917335e-05       2.200078224560e+02 
       8.386301312388e-05       2.744440125741e+02 
       1.055772783313e-04       3.423537329651e+02 
       1.329139185993e-04       4.269796363797e+02 
       1.673287097058e-04       5.324157577872e+02 
       2.106543647714e-04       6.639137993694e+02 
       2.651981329161e-04       8.276712056928e+02 
       3.338646686884e-04       1.031557125779e+03 
       4.203107155121e-04       1.285027055358e+03 
       5.291398406075e-04       1.599624727370e+03 
       6.661475917335e-04       1.989126758709e+03 
       8.386301312388e-04       2.469720656254e+03 
       1.055772783313e-03       3.059947661386e+03 
       1.329139185993e-03       3.780284668854e+03 
       1.673287097058e-03       4.651930601924e+03 
       2.106543647714e-03       5.694943134799e+03 
       2.651981329161e-03       6.924839356282e+03 
       3.338646686884e-03       8.347692966382e+03 
       4.203107155121e-03       9.954039114355e+03 
       5.291398406075e-03       1.171005370503e+04 
       6.661475917335e-03       1.354671392552e+04 
       8.386301312388e-03       1.534861851928e+04 
       1.055772783313e-02       1.694212729878e+04 
       1.329139185993e-02       1.809019991368e+04 
       1.673287097055e-02       1.850813952100e+04 
       2.106543630464e-02       1.792056416441e+04 
       2.651968288901e-02       1.620996806828e+04 
       3.336851896947e-02       1.364645180463e+04 
       4.143681699672e-02       1.110647348053e+04 
       4.823404509118e-02       9.658631402944e+03 
       5.316451176930e-02       8.946810261774e+03 
       5.723119236715e-02       8.502644262386e+03 
       6.086253476325e-02       8.167655033752e+03 
       6.424957644542e-02       7.875727727056e+03 
       6.749344715603e-02       7.593683585376e+03 
       7.065479183495e-02       7.303840600434e+03 
       7.377344927649e-02       6.997730258429e+03 
       7.687749830552e-02       6.673199261333e+03 
       7.998788894043e-02       6.332859402299e+03 
       8.312101603522e-02       5.982818742207e+03 
       8.629024436624e-02       5.631550962369e+03 
       8.950686006107e-02       5.288733665410e+03 
       9.278068955300e-02       4.964077875188e+03 
       9.612051638708e-02       4.666228035803e+03 
       9.953437002553e-02       4.401832922407e+03 
       1.030297307152e-01       4.174839007006e+03 
       1.066136776005e-01       3.986029518384e+03 
       1.102929974112e-01       3.832900055808e+03 
       1.140742651042e-01       3.709704061169e+03 
       1.179639041415e-01       3.607861554450e+03 
       1.219682317317e-01       3.516730425024e+03 
       1.260934928360e-01       3.424868439565e+03 
       1.303458857367e-01       3.321814555199e+03 
       1.347315812958e-01       3.200119364306e+03 
       1.392567375885e-01       3.057157393088e+03 
       1.439275113025e-01       2.895958427012e+03 
       1.487500670968e-01       2.724689843623e+03 
       1.537305859894e-01       2.554734116518e+03 
       1.588752737623e-01       2.397880295141e+03 
       1.641903703228e-01       2.263365306689e+03 
       1.696821609277e-01       2.155551016363e+03 
       1.753569901571e-01       2.072778574953e+03 
       1.812212795127e-01       2.007727443265e+03 
       1.872815495043e-01       1.949780215904e+03 
       1.935444470862e-01       1.887169092853e+03 
       2.000167793067e-01       1.811103242262e+03 
       2.067055540477e-01       1.720516772192e+03 
       2.136180287652e-01       1.621818035616e+03 
       2.207617681994e-01       1.525409054759e+03 
       2.281447121219e-01       1.440700808006e+03 
       2.357752543364e-01       1.372378387759e+03 
       2.436623343696e-01       1.318784262717e+03 
       2.518155435963e-01       1.272713437550e+03 
       2.602452479655e-01       1.225228636896e+03 
       2.689627300654e-01       1.170889526247e+03 
       2.779803540253e-01       1.110771805564e+03 
       2.873117577581e-01       1.051278201094e+03 
       2.969720783784e-01       9.991944011219e+02 
       3.069782183933e-01       9.566665336590e+02 
       3.173491626118e-01       9.195943968256e+02 
       3.281063588685e-01       8.826714351250e+02 
       3.392741799351e-01       8.429789904966e+02 
       3.508804898550e-01       8.025397065806e+02 
       3.629573460968e-01       7.653986594651e+02 
       3.755418804277e-01       7.331965140101e+02 
       3.886774179035e-01       7.036051376207e+02 
       4.024149174211e-01       6.737695766332e+02 
       4.168148529936e-01       6.437076643669e+02 
       4.319497090464e-01       6.153925808322e+02 
       4.479073469010e-01       5.894668360363e+02 
       4.647956327992e-01       5.646351659649e+02 
       4.827489350835e-01       5.398470796744e+02 
       5.019374634823e-01       5.159123833732e+02 
       5.225810589461e-01       4.932625743600e+02 
       5.449701910559e-01       4.708713815751e+02 
       5.694990879330e-01       4.487711465973e+02 
       5.967202222480e-01       4.270810832657e+02 
       6.274383917711e-01       4.052159391866e+02 
       6.628827694619e-01       3.830487037179e+02 
       7.050434828574e-01       3.599993970634e+02 
       7.573826324241e-01       3.353933576339e+02 
       8.264573875107e-01       3.080044634688e+02 
       9.257548230965e-01       2.758360092406e+02 
       1.082796239762e+00       2.362314990667e+02 
       1.332734404789e+00       1.899403684505e+02 
       1.675045845447e+00       1.454505684149e+02 
       2.108705412281e+00       1.073633946933e+02 
       2.654702635419e+00       7.650178296198e+01 
       3.342072608385e+00       5.282598618008e+01 
       4.207420134757e+00       3.551431524871e+01 
       5.296828125740e+00       2.334114910040e+01 
       6.668311529400e+00       1.505103395865e+01 
       8.394906838122e+00       9.545713648860e+00 
       1.056856154816e+01       5.964944165648e+00 
       1.330503069908e+01       3.677973095174e+00 
       1.675004125178e+01       2.240372106712e+00 
       2.108705258046e+01       1.349499558462e+00 
       2.654702635339e+01       8.046178482012e-01 
       3.342072608385e+01       4.752540058263e-01 
       4.207420134757e+01       2.783090668580e-01 
       5.296828125740e+01       1.617045496857e-01 
       6.668311529400e+01       9.328262613128e-02 
       8.394906838122e+01       5.346342241624e-02 
       1.056856154816e+02       3.046210104877e-02 
       1.330503069908e+02       1.726392095952e-02 
       1.675004125178e+02       9.736253600640e-03 
       2.108705258046e+02       5.465176640691e-03 
