# Matter power spectrum P(k) at redshift z=0.1
# for k=1.0653e-05 to 212.771 h/Mpc,
# number of wavenumbers equal to 135
#    1:k (h/Mpc)              2:P (Mpc/h)^3        
       1.065297608949e-05       4.712414395949e+01 
       1.341130231029e-05       5.163202464997e+01 
       1.688382928368e-05       6.410681224872e+01 
       2.125548173362e-05       8.154495714312e+01 
       2.675906609438e-05       1.008217408722e+02 
       3.368766830209e-05       1.278181180309e+02 
       4.241026168960e-05       1.591470639556e+02 
       5.339135616187e-05       1.989277246848e+02 
       6.721573504233e-05       2.485705772577e+02 
       8.461959691722e-05       3.101370378119e+02 
       1.065297608949e-04       3.867514169291e+02 
       1.341130231029e-04       4.823670126345e+02 
       1.688382928368e-04       6.014811016976e+02 
       2.125548173362e-04       7.500202886811e+02 
       2.675906609438e-04       9.350410566707e+02 
       3.368766830209e-04       1.165307558700e+03 
       4.241026168960e-04       1.451580877943e+03 
       5.339135616187e-04       1.806846237794e+03 
       6.721573504233e-04       2.246642682490e+03 
       8.461959691722e-04       2.789194051188e+03 
       1.065297608949e-03       3.455367094651e+03 
       1.341130231029e-03       4.268156162006e+03 
       1.688382928368e-03       5.251273027170e+03 
       2.125548173362e-03       6.427053275475e+03 
       2.675906609438e-03       7.812533971130e+03 
       3.368766830209e-03       9.413934121926e+03 
       4.241026168960e-03       1.121974314869e+04 
       5.339135616187e-03       1.319064112800e+04 
       6.721573504233e-03       1.524736933402e+04 
       8.461959691722e-03       1.725823367362e+04 
       1.065297608949e-02       1.902568467097e+04 
       1.341130231029e-02       2.028155062632e+04 
       1.688382928364e-02       2.070606642957e+04 
       2.125548150196e-02       1.999464859439e+04 
       2.675890332307e-02       1.802961262558e+04 
       3.366656121949e-02       1.513759697323e+04 
       4.174812847909e-02       1.232856907439e+04 
       4.845224332871e-02       1.076034836567e+04 
       5.333502158212e-02       9.984154854583e+03 
       5.737910415683e-02       9.496175720652e+03 
       6.099820005948e-02       9.126075851760e+03 
       6.437813162235e-02       8.802133963981e+03 
       6.761782965077e-02       8.488175926803e+03 
       7.077686273009e-02       8.164966462118e+03 
       7.389448284757e-02       7.823362077450e+03 
       7.699842267797e-02       7.461197836757e+03 
       8.010941563580e-02       7.081565617665e+03 
       8.324371480182e-02       6.691410214940e+03 
       8.641458889910e-02       6.300273364840e+03 
       8.963325723707e-02       5.918985914177e+03 
       9.290949883744e-02       5.558357294355e+03 
       9.625206312119e-02       5.227977442585e+03 
       9.966895476000e-02       4.935160755344e+03 
       1.031676359049e-01       4.684153829135e+03 
       1.067551724874e-01       4.475701321886e+03 
       1.104383416310e-01       4.306849898571e+03 
       1.142237113752e-01       4.171029925174e+03 
       1.181177002795e-01       4.058555504468e+03 
       1.221266221640e-01       3.957465624569e+03 
       1.262567197402e-01       3.854987687078e+03 
       1.305141898968e-01       3.739527212787e+03 
       1.349052027484e-01       3.602956565547e+03 
       1.394359161201e-01       3.442578141052e+03 
       1.441124868442e-01       3.262027379674e+03 
       1.489410800631e-01       3.070616195636e+03 
       1.539278775987e-01       2.881134741479e+03 
       1.590790863779e-01       2.706688773015e+03 
       1.644009478495e-01       2.557417217347e+03 
       1.698997492987e-01       2.437936012888e+03 
       1.755818379464e-01       2.346132759765e+03 
       1.814536387056e-01       2.273632725405e+03 
       1.875216764605e-01       2.208549051318e+03 
       1.937926037288e-01       2.137739931762e+03 
       2.002732345703e-01       2.051724307726e+03 
       2.069705856216e-01       1.949680157591e+03 
       2.138919251668e-01       1.839033675779e+03 
       2.210448312180e-01       1.731448799575e+03 
       2.284372596770e-01       1.637272519416e+03 
       2.360776238015e-01       1.561464908602e+03 
       2.439748864236e-01       1.501897212490e+03 
       2.521386666777e-01       1.450364848610e+03 
       2.605793634242e-01       1.396962855845e+03 
       2.693082981334e-01       1.335756617363e+03 
       2.783378807602e-01       1.268698628025e+03 
       2.876818031601e-01       1.202448233413e+03 
       2.973552659400e-01       1.144873620237e+03 
       3.073752464211e-01       1.097427251453e+03 
       3.177608177653e-01       1.056206131875e+03 
       3.285335325042e-01       1.014940085220e+03 
       3.397178880384e-01       9.705798008060e+02 
       3.513418976134e-01       9.255526038844e+02 
       3.634377985428e-01       8.843379251100e+02 
       3.760429411182e-01       8.485829832693e+02 
       3.892009183754e-01       8.155730025906e+02 
       4.029630213023e-01       7.822196503113e+02 
       4.173901403592e-01       7.486756656737e+02 
       4.325552892222e-01       7.171383861389e+02 
       4.485470120206e-01       6.882162842195e+02 
       4.654740710103e-01       6.604211022400e+02 
       4.834720332049e-01       6.326605041885e+02 
       5.027127475356e-01       6.058778529134e+02 
       5.234183539439e-01       5.804643218234e+02 
       5.458826421665e-01       5.552754813717e+02 
       5.705048023177e-01       5.303927721129e+02 
       5.978450290190e-01       5.058930601025e+02 
       6.287207309535e-01       4.811172958848e+02 
       6.643829030557e-01       4.559024751380e+02 
       7.068621400517e-01       4.295504822742e+02 
       7.597018663167e-01       4.012332306401e+02 
       8.296366180581e-01       3.694393191548e+02 
       9.305522312713e-01       3.316704789494e+02 
       1.090628146677e+00       2.845651134080e+02 
       1.344459231526e+00       2.290689516429e+02 
       1.690134455615e+00       1.755736874409e+02 
       2.127709730039e+00       1.297092189347e+02 
       2.678627697715e+00       9.259562328333e+01 
       3.372192477317e+00       6.413664720667e+01 
       4.245338803155e+00       4.330016020136e+01 
       5.344564900968e+00       2.861472487850e+01 
       6.728408568812e+00       1.856883074386e+01 
       8.470564528211e+00       1.185570081057e+01 
       1.066380893681e+01       7.460148296757e+00 
       1.342494005706e+01       4.631999774842e+00 
       1.690099818965e+01       2.840780099130e+00 
       2.127709610564e+01       1.722532141518e+00 
       2.678627697658e+01       1.033576186428e+00 
       3.372192477317e+01       6.141990201700e-01 
       4.245338803155e+01       3.617689230055e-01 
       5.344564900968e+01       2.113612583230e-01 
       6.728408568812e+01       1.225678401537e-01 
       8.470564528211e+01       7.059313650853e-02 
       1.066380893681e+02       4.040350130486e-02 
       1.342494005706e+02       2.299060148927e-02 
       1.690099818965e+02       1.301410299620e-02 
       2.127709610564e+02       7.333836848912e-03 
