# Matter power spectrum P(k) at redshift z=20
# for k=1.0653e-05 to 212.771 h/Mpc,
# number of wavenumbers equal to 135
#    1:k (h/Mpc)              2:P (Mpc/h)^3        
       1.065297608949e-05       8.273465016777e-02 
       1.341130231029e-05       1.391478049767e-01 
       1.688382928368e-05       1.842274364227e-01 
       2.125548173362e-05       2.756792207974e-01 
       2.675906609438e-05       3.774893260614e-01 
       3.368766830209e-05       4.981188523398e-01 
       4.241026168960e-05       6.371666238976e-01 
       5.339135616187e-05       8.225723670015e-01 
       6.721573504233e-05       1.036553165414e+00 
       8.461959691722e-05       1.289440774905e+00 
       1.065297608949e-04       1.605175763275e+00 
       1.341130231029e-04       2.003393125006e+00 
       1.688382928368e-04       2.494781801918e+00 
       2.125548173362e-04       3.111884664406e+00 
       2.675906609438e-04       3.880620532538e+00 
       3.368766830209e-04       4.838522905682e+00 
       4.241026168960e-04       6.031655498131e+00 
       5.339135616187e-04       7.515582197004e+00 
       6.721573504233e-04       9.358920564521e+00 
       8.461959691722e-04       1.164317109879e+01 
       1.065297608949e-03       1.446313131066e+01 
       1.341130231029e-03       1.792456428952e+01 
       1.688382928368e-03       2.213716326338e+01 
       2.125548173362e-03       2.720264140728e+01 
       2.675906609438e-03       3.319288060995e+01 
       3.368766830209e-03       4.012698959863e+01 
       4.241026168960e-03       4.794813289521e+01 
       5.339135616187e-03       5.649277012500e+01 
       6.721573504233e-03       6.543206648214e+01 
       8.461959691722e-03       7.420913821845e+01 
       1.065297608949e-02       8.198843254544e+01 
       1.341130231029e-02       8.762466307405e+01 
       1.688382928364e-02       8.972498367271e+01 
       2.125548150196e-02       8.693633133546e+01 
       2.675890332307e-02       7.867597788249e+01 
       3.366656121949e-02       6.626400078174e+01 
       4.174812847909e-02       5.404581881825e+01 
       4.845224332871e-02       4.715074432196e+01 
       5.333502158212e-02       4.370490105882e+01 
       5.737910415683e-02       4.151903743234e+01 
       6.099820005948e-02       3.984830892702e+01 
       6.437813162235e-02       3.837809385310e+01 
       6.761782965077e-02       3.694935263892e+01 
       7.077686273009e-02       3.547750580462e+01 
       7.389448284757e-02       3.392240470214e+01 
       7.699842267797e-02       3.227479318600e+01 
       8.010941563580e-02       3.054869362880e+01 
       8.324371480182e-02       2.877519891869e+01 
       8.641458889910e-02       2.699690252413e+01 
       8.963325723707e-02       2.526207029431e+01 
       9.290949883744e-02       2.361882283777e+01 
       9.625206312119e-02       2.210980521909e+01 
       9.966895476000e-02       2.076754124064e+01 
       1.031676359049e-01       1.961090922504e+01 
       1.067551724874e-01       1.864326108256e+01 
       1.104383416310e-01       1.785155925938e+01 
       1.142237113752e-01       1.720677328321e+01 
       1.181177002795e-01       1.666612309453e+01 
       1.221266221640e-01       1.617683286154e+01 
       1.262567197402e-01       1.568262007061e+01 
       1.305141898968e-01       1.513248450888e+01 
       1.349052027484e-01       1.449080039308e+01 
       1.394359161201e-01       1.374596137963e+01 
       1.441124868442e-01       1.291433939838e+01 
       1.489410800631e-01       1.203734095688e+01 
       1.539278775987e-01       1.117163140016e+01 
       1.590790863779e-01       1.037510910827e+01 
       1.644009478495e-01       9.692416937226e+00 
       1.698997492987e-01       9.143744960860e+00 
       1.755818379464e-01       8.719628862133e+00 
       1.814536387056e-01       8.383080860571e+00 
       1.875216764605e-01       8.081610800188e+00 
       1.937926037288e-01       7.757457192682e+00 
       2.002732345703e-01       7.369090110339e+00 
       2.069705856216e-01       6.912824120477e+00 
       2.138919251668e-01       6.421093145339e+00 
       2.210448312180e-01       5.944893787686e+00 
       2.284372596770e-01       5.529400403156e+00 
       2.360776238015e-01       5.196037791509e+00 
       2.439748864236e-01       4.935104929695e+00 
       2.521386666777e-01       4.710443893266e+00 
       2.605793634242e-01       4.478654740996e+00 
       2.693082981334e-01       4.214353711239e+00 
       2.783378807602e-01       3.924010759191e+00 
       2.876818031601e-01       3.639182580339e+00 
       2.973552659400e-01       3.392044474804e+00 
       3.073752464211e-01       3.190605098724e+00 
       3.177608177653e-01       3.016436274991e+00 
       3.285335325042e-01       2.842556522506e+00 
       3.397178880384e-01       2.655807117975e+00 
       3.513418976134e-01       2.466779724028e+00 
       3.634377985428e-01       2.294818410722e+00 
       3.760429411182e-01       2.146981705594e+00 
       3.892009183754e-01       2.011597918515e+00 
       4.029630213023e-01       1.875405325647e+00 
       4.173901403592e-01       1.739100632834e+00 
       4.325552892222e-01       1.612182580298e+00 
       4.485470120206e-01       1.497308307332e+00 
       4.654740710103e-01       1.388128962038e+00 
       4.834720332049e-01       1.280114744016e+00 
       5.027127475356e-01       1.177417702213e+00 
       5.234183539439e-01       1.081812029422e+00 
       5.458826421665e-01       9.886726481008e-01 
       5.705048023177e-01       8.986180757040e-01 
       5.978450290190e-01       8.123657626683e-01 
       6.287207309535e-01       7.277157500067e-01 
       6.643829030557e-01       6.448549571269e-01 
       7.068621400517e-01       5.622676090796e-01 
       7.597018663167e-01       4.789069008709e-01 
       8.296366180581e-01       3.929494032684e-01 
       9.305522312713e-01       3.027822005876e-01 
       1.090628146677e+00       2.101326294212e-01 
       1.344459231526e+00       1.287879959334e-01 
       1.690134455615e+00       7.468660573911e-02 
       2.127709730039e+00       4.277708937909e-02 
       2.678627697715e+00       2.429956764876e-02 
       3.372192477317e+00       1.370172537812e-02 
       4.245338803155e+00       7.674186684713e-03 
       5.344564900968e+00       4.271901080565e-03 
       6.728408568812e+00       2.364996659254e-03 
       8.470564528211e+00       1.302539571236e-03 
       1.066380893681e+01       7.141048454568e-04 
       1.342494005706e+01       3.898397923144e-04 
       1.690099818965e+01       2.120122426275e-04 
       2.127709610564e+01       1.148794500342e-04 
       2.678627697658e+01       6.204958849453e-05 
       3.372192477317e+01       3.340963343610e-05 
       4.245338803155e+01       1.793763411078e-05 
       5.344564900968e+01       9.604682606325e-06 
       6.728408568812e+01       5.128139613767e-06 
       8.470564528211e+01       2.730690235585e-06 
       1.066380893681e+02       1.449495971319e-06 
       1.342494005706e+02       7.664049789707e-07 
       1.690099818965e+02       4.034050868525e-07 
       2.127709610564e+02       2.109573403906e-07 
