# Matter power spectrum P(k) at redshift z=10
# for k=1.0653e-05 to 212.771 h/Mpc,
# number of wavenumbers equal to 135
#    1:k (h/Mpc)              2:P (Mpc/h)^3        
       1.065297608949e-05       4.607673882249e-01 
       1.341130231029e-05       6.365503810921e-01 
       1.688382928368e-05       8.177267005427e-01 
       2.125548173362e-05       1.135683306688e+00 
       2.675906609438e-05       1.476068571801e+00 
       3.368766830209e-05       1.895893839623e+00 
       4.241026168960e-05       2.392283885420e+00 
       5.339135616187e-05       3.030085710483e+00 
       6.721573504233e-05       3.805020820978e+00 
       8.461959691722e-05       4.737343414263e+00 
       1.065297608949e-04       5.903941670772e+00 
       1.341130231029e-04       7.364775768601e+00 
       1.688382928368e-04       9.177666372995e+00 
       2.125548173362e-04       1.144594171671e+01 
       2.675906609438e-04       1.427330465260e+01 
       3.368766830209e-04       1.779470742218e+01 
       4.241026168960e-04       2.217832514975e+01 
       5.339135616187e-04       2.762688898513e+01 
       6.721573504233e-04       3.438832403045e+01 
       8.461959691722e-04       4.275361173414e+01 
       1.065297608949e-03       5.305754904574e+01 
       1.341130231029e-03       6.566706255291e+01 
       1.688382928368e-03       8.095545215055e+01 
       2.125548173362e-03       9.926688451934e+01 
       2.675906609438e-03       1.208595450455e+02 
       3.368766830209e-03       1.458364711097e+02 
       4.241026168960e-03       1.740334812614e+02 
       5.339135616187e-03       2.048576141926e+02 
       6.721573504233e-03       2.371118915503e+02 
       8.461959691722e-03       2.687838396502e+02 
       1.065297608949e-02       2.968488451560e+02 
       1.341130231029e-02       3.171662677942e+02 
       1.688382928364e-02       3.246861522646e+02 
       2.125548150196e-02       3.145378041354e+02 
       2.675890332307e-02       2.846228035059e+02 
       3.366656121949e-02       2.397035421894e+02 
       4.174812847909e-02       1.954970157934e+02 
       4.845224332871e-02       1.705526064331e+02 
       5.333502158212e-02       1.580871691559e+02 
       5.737910415683e-02       1.501799623349e+02 
       6.099820005948e-02       1.441362987462e+02 
       6.437813162235e-02       1.388180163483e+02 
       6.761782965077e-02       1.336498446748e+02 
       7.077686273009e-02       1.283258863373e+02 
       7.389448284757e-02       1.227009516667e+02 
       7.699842267797e-02       1.167415509438e+02 
       8.010941563580e-02       1.104983455632e+02 
       8.324371480182e-02       1.040837149173e+02 
       8.641458889910e-02       9.765163847543e+01 
       8.963325723707e-02       9.137663903429e+01 
       9.290949883744e-02       8.543275352273e+01 
       9.625206312119e-02       7.997424471240e+01 
       9.966895476000e-02       7.511877790392e+01 
       1.031676359049e-01       7.093466518061e+01 
       1.067551724874e-01       6.743406429581e+01 
       1.104383416310e-01       6.456986618548e+01 
       1.142237113752e-01       6.223713029081e+01 
       1.181177002795e-01       6.028118169202e+01 
       1.221266221640e-01       5.851115859784e+01 
       1.262567197402e-01       5.672346830612e+01 
       1.305141898968e-01       5.473359366897e+01 
       1.349052027484e-01       5.241263375301e+01 
       1.394359161201e-01       4.971859710417e+01 
       1.441124868442e-01       4.671070433574e+01 
       1.489410800631e-01       4.353871297902e+01 
       1.539278775987e-01       4.040755513080e+01 
       1.590790863779e-01       3.752663077356e+01 
       1.644009478495e-01       3.505741169768e+01 
       1.698997492987e-01       3.307291972483e+01 
       1.755818379464e-01       3.153889809470e+01 
       1.814536387056e-01       3.032154201491e+01 
       1.875216764605e-01       2.923120025320e+01 
       1.937926037288e-01       2.805883506348e+01 
       2.002732345703e-01       2.665396972238e+01 
       2.069705856216e-01       2.500341957070e+01 
       2.138919251668e-01       2.322473926382e+01 
       2.210448312180e-01       2.150243180900e+01 
       2.284372596770e-01       1.999970249911e+01 
       2.360776238015e-01       1.879391926174e+01 
       2.439748864236e-01       1.785007488946e+01 
       2.521386666777e-01       1.703747178670e+01 
       2.605793634242e-01       1.619912542686e+01 
       2.693082981334e-01       1.524319058036e+01 
       2.783378807602e-01       1.419300690514e+01 
       2.876818031601e-01       1.316273363939e+01 
       2.973552659400e-01       1.226885685208e+01 
       3.073752464211e-01       1.154029995048e+01 
       3.177608177653e-01       1.091033986551e+01 
       3.285335325042e-01       1.028140730328e+01 
       3.397178880384e-01       9.605912835911e+00 
       3.513418976134e-01       8.922212131616e+00 
       3.634377985428e-01       8.300254522875e+00 
       3.760429411182e-01       7.765560001288e+00 
       3.892009183754e-01       7.275856622905e+00 
       4.029630213023e-01       6.783227022250e+00 
       4.173901403592e-01       6.290244191116e+00 
       4.325552892222e-01       5.831206122690e+00 
       4.485470120206e-01       5.415679004541e+00 
       4.654740710103e-01       5.020791216529e+00 
       4.834720332049e-01       4.630120056470e+00 
       5.027127475356e-01       4.258655605494e+00 
       5.234183539439e-01       3.912861788728e+00 
       5.458826421665e-01       3.575976880752e+00 
       5.705048023177e-01       3.250256272782e+00 
       5.978450290190e-01       2.938284547981e+00 
       6.287207309535e-01       2.632109794855e+00 
       6.643829030557e-01       2.332407357922e+00 
       7.068621400517e-01       2.033692399792e+00 
       7.597018663167e-01       1.732181028485e+00 
       8.296366180581e-01       1.421277111520e+00 
       9.305522312713e-01       1.095147059216e+00 
       1.090628146677e+00       7.600384163328e-01 
       1.344459231526e+00       4.658191203659e-01 
       1.690134455615e+00       2.701372898893e-01 
       2.127709730039e+00       1.547222756822e-01 
       2.678627697715e+00       8.789007393826e-02 
       3.372192477317e+00       4.955826506705e-02 
       4.245338803155e+00       2.775699988913e-02 
       5.344564900968e+00       1.545113486402e-02 
       6.728408568812e+00       8.553986859389e-03 
       8.470564528211e+00       4.711154797265e-03 
       1.066380893681e+01       2.582833494104e-03 
       1.342494005706e+01       1.409995559711e-03 
       1.690099818965e+01       7.668109324440e-04 
       2.127709610564e+01       4.154921440998e-04 
       2.678627697658e+01       2.244131675444e-04 
       3.372192477317e+01       1.208267436052e-04 
       4.245338803155e+01       6.486752590941e-05 
       5.344564900968e+01       3.472948256232e-05 
       6.728408568812e+01       1.853958490335e-05 
       8.470564528211e+01       9.869461628985e-06 
       1.066380893681e+02       5.236606665011e-06 
       1.342494005706e+02       2.766921180917e-06 
       1.690099818965e+02       1.454873412923e-06 
       2.127709610564e+02       7.596064117125e-07 
