# Matter power spectrum P(k) at redshift z=0.75
# for k=1.0653e-05 to 212.771 h/Mpc,
# number of wavenumbers equal to 135
#    1:k (h/Mpc)              2:P (Mpc/h)^3        
       1.065297608949e-05       2.603079054932e+01 
       1.341130231029e-05       2.685398289740e+01 
       1.688382928368e-05       3.312449367187e+01 
       2.125548173362e-05       4.234592003308e+01 
       2.675906609438e-05       5.205378778750e+01 
       3.368766830209e-05       6.634842724428e+01 
       4.241026168960e-05       8.249714113932e+01 
       5.339135616187e-05       1.031675490645e+02 
       6.721573504233e-05       1.289815316952e+02 
       8.461959691722e-05       1.609424871135e+02 
       1.065297608949e-04       2.007043340477e+02 
       1.341130231029e-04       2.503805108916e+02 
       1.688382928368e-04       3.123061537880e+02 
       2.125548173362e-04       3.896453957305e+02 
       2.675906609438e-04       4.861210974444e+02 
       3.368766830209e-04       6.063583442613e+02 
       4.241026168960e-04       7.559780221575e+02 
       5.339135616187e-04       9.416000490966e+02 
       6.721573504233e-04       1.170958398229e+03 
       8.461959691722e-04       1.453003899358e+03 
       1.065297608949e-03       1.798094985563e+03 
       1.341130231029e-03       2.217969772229e+03 
       1.688382928368e-03       2.725063880307e+03 
       2.125548173362e-03       3.331212876631e+03 
       2.675906609438e-03       4.045460324729e+03 
       3.368766830209e-03       4.871216729625e+03 
       4.241026168960e-03       5.802698254667e+03 
       5.339135616187e-03       6.819689060323e+03 
       6.721573504233e-03       7.882046150995e+03 
       8.461959691722e-03       8.923105576118e+03 
       1.065297608949e-02       9.841689554737e+03 
       1.341130231029e-02       1.050153552103e+04 
       1.688382928364e-02       1.073838213944e+04 
       2.125548150196e-02       1.039205713220e+04 
       2.675890332307e-02       9.395353978278e+03 
       3.366656121949e-02       7.906846658037e+03 
       4.174812847909e-02       6.445156749682e+03 
       4.845224332871e-02       5.621087152193e+03 
       5.333502158212e-02       5.209386829800e+03 
       5.737910415683e-02       4.948268399000e+03 
       6.099820005948e-02       4.748730204215e+03 
       6.437813162235e-02       4.573195674009e+03 
       6.761782965077e-02       4.402679336959e+03 
       7.077686273009e-02       4.227087958915e+03 
       7.389448284757e-02       4.041629008668e+03 
       7.699842267797e-02       3.845192333289e+03 
       8.010941563580e-02       3.639440297381e+03 
       8.324371480182e-02       3.428067776526e+03 
       8.641458889910e-02       3.216140101945e+03 
       8.963325723707e-02       3.009400076425e+03 
       9.290949883744e-02       2.813575709942e+03 
       9.625206312119e-02       2.633744858897e+03 
       9.966895476000e-02       2.473780588321e+03 
       1.031676359049e-01       2.335930946606e+03 
       1.067551724874e-01       2.220595132491e+03 
       1.104383416310e-01       2.126221654733e+03 
       1.142237113752e-01       2.049355519613e+03 
       1.181177002795e-01       1.984904492718e+03 
       1.221266221640e-01       1.926584309690e+03 
       1.262567197402e-01       1.867690494885e+03 
       1.305141898968e-01       1.802146043590e+03 
       1.349052027484e-01       1.725705576071e+03 
       1.394359161201e-01       1.636986191884e+03 
       1.441124868442e-01       1.537937737093e+03 
       1.489410800631e-01       1.433490331009e+03 
       1.539278775987e-01       1.330389975724e+03 
       1.590790863779e-01       1.235529915762e+03 
       1.644009478495e-01       1.154225864945e+03 
       1.698997492987e-01       1.088881285639e+03 
       1.755818379464e-01       1.038367325221e+03 
       1.814536387056e-01       9.982779629654e+02 
       1.875216764605e-01       9.623755971346e+02 
       1.937926037288e-01       9.237747790253e+02 
       2.002732345703e-01       8.775135926364e+02 
       2.069705856216e-01       8.231622840035e+02 
       2.138919251668e-01       7.645980878102e+02 
       2.210448312180e-01       7.078963436028e+02 
       2.284372596770e-01       6.584240160276e+02 
       2.360776238015e-01       6.187242295459e+02 
       2.439748864236e-01       5.876469523798e+02 
       2.521386666777e-01       5.608921369923e+02 
       2.605793634242e-01       5.332915656904e+02 
       2.693082981334e-01       5.018206417671e+02 
       2.783378807602e-01       4.672457351820e+02 
       2.876818031601e-01       4.333254220347e+02 
       2.973552659400e-01       4.038976457874e+02 
       3.073752464211e-01       3.799132295072e+02 
       3.177608177653e-01       3.591736212846e+02 
       3.285335325042e-01       3.384675537466e+02 
       3.397178880384e-01       3.162285322698e+02 
       3.513418976134e-01       2.937205207599e+02 
       3.634377985428e-01       2.732456174656e+02 
       3.760429411182e-01       2.556436036207e+02 
       3.892009183754e-01       2.395212930630e+02 
       4.029630213023e-01       2.233027508749e+02 
       4.173901403592e-01       2.070742543781e+02 
       4.325552892222e-01       1.919630579419e+02 
       4.485470120206e-01       1.782827210778e+02 
       4.654740710103e-01       1.652831361571e+02 
       4.834720332049e-01       1.524224950601e+02 
       5.027127475356e-01       1.401933969220e+02 
       5.234183539439e-01       1.288100413043e+02 
       5.458826421665e-01       1.177196558086e+02 
       5.705048023177e-01       1.069970346238e+02 
       5.978450290190e-01       9.672690580145e+01 
       6.287207309535e-01       8.664768800638e+01 
       6.643829030557e-01       7.678160639148e+01 
       7.068621400517e-01       6.694797135771e+01 
       7.597018663167e-01       5.702234408187e+01 
       8.296366180581e-01       4.678751142633e+01 
       9.305522312713e-01       3.605147897159e+01 
       1.090628146677e+00       2.501990109861e+01 
       1.344459231526e+00       1.533439404946e+01 
       1.690134455615e+00       8.892689514689e+00 
       2.127709730039e+00       5.093316175820e+00 
       2.678627697715e+00       2.893253371160e+00 
       3.372192477317e+00       1.631401183582e+00 
       4.245338803155e+00       9.137216966686e-01 
       5.344564900968e+00       5.086235911902e-01 
       6.728408568812e+00       2.815756729767e-01 
       8.470564528211e+00       1.550740701448e-01 
       1.066380893681e+01       8.501288187578e-02 
       1.342494005706e+01       4.640507081385e-02 
       1.690099818965e+01       2.523317600935e-02 
       2.127709610564e+01       1.366888763904e-02 
       2.678627697658e+01       7.380116477352e-03 
       3.372192477317e+01       3.971119762313e-03 
       4.245338803155e+01       2.129914872652e-03 
       5.344564900968e+01       1.138595884138e-03 
       6.728408568812e+01       6.063755202334e-04 
       8.470564528211e+01       3.215763377050e-04 
       1.066380893681e+02       1.696082514811e-04 
       1.342494005706e+02       8.880900540658e-05 
       1.690099818965e+02       4.603803452434e-05 
       2.127709610564e+02       2.353734968045e-05 
