# Matter power spectrum P(k) at redshift z=1
# for k=1.0653e-05 to 212.771 h/Mpc,
# number of wavenumbers equal to 135
#    1:k (h/Mpc)              2:P (Mpc/h)^3        
       1.065297608949e-05       2.131051786643e+01 
       1.341130231029e-05       2.148498534190e+01 
       1.688382928368e-05       2.644047461456e+01 
       2.125548173362e-05       3.387689942928e+01 
       2.675906609438e-05       4.155056003999e+01 
       3.368766830209e-05       5.308351871439e+01 
       4.241026168960e-05       6.597036301297e+01 
       5.339135616187e-05       8.250638890921e+01 
       6.721573504233e-05       1.031690016979e+02 
       8.461959691722e-05       1.287271274241e+02 
       1.065297608949e-04       1.605101078153e+02 
       1.341130231029e-04       2.002173209263e+02 
       1.688382928368e-04       2.496970944549e+02 
       2.125548173362e-04       3.114790042051e+02 
       2.675906609438e-04       3.885196806831e+02 
       3.368766830209e-04       4.845056287400e+02 
       4.241026168960e-04       6.039434371882e+02 
       5.339135616187e-04       7.521747136829e+02 
       6.721573504233e-04       9.354768627395e+02 
       8.461959691722e-04       1.161106050356e+03 
       1.065297608949e-03       1.437394583637e+03 
       1.341130231029e-03       1.773703469011e+03 
       1.688382928368e-03       2.179912517823e+03 
       2.125548173362e-03       2.665422298781e+03 
       2.675906609438e-03       3.237406345198e+03 
       3.368766830209e-03       3.898541838946e+03 
       4.241026168960e-03       4.644128566860e+03 
       5.339135616187e-03       5.457863210841e+03 
       6.721573504233e-03       6.307258864048e+03 
       8.461959691722e-03       7.138693571932e+03 
       1.065297608949e-02       7.870645920645e+03 
       1.341130231029e-02       8.393470680501e+03 
       1.688382928364e-02       8.575472689821e+03 
       2.125548150196e-02       8.289150957459e+03 
       2.675890332307e-02       7.483235215454e+03 
       3.366656121949e-02       6.288180496334e+03 
       4.174812847909e-02       5.120379321068e+03 
       4.845224332871e-02       4.464564756069e+03 
       5.333502158212e-02       4.138034502550e+03 
       5.737910415683e-02       3.931618630710e+03 
       6.099820005948e-02       3.774384126313e+03 
       6.437813162235e-02       3.636425177044e+03 
       6.761782965077e-02       3.502644073510e+03 
       7.077686273009e-02       3.365013625797e+03 
       7.389448284757e-02       3.219714282005e+03 
       7.699842267797e-02       3.065844493919e+03 
       8.010941563580e-02       2.904697762213e+03 
       8.324371480182e-02       2.739176267224e+03 
       8.641458889910e-02       2.573267769550e+03 
       8.963325723707e-02       2.411498924753e+03 
       9.290949883744e-02       2.258389191475e+03 
       9.625206312119e-02       2.117949253887e+03 
       9.966895476000e-02       1.993242578677e+03 
       1.031676359049e-01       1.886052161582e+03 
       1.067551724874e-01       1.796701436456e+03 
       1.104383416310e-01       1.723970823486e+03 
       1.142237113752e-01       1.665131862095e+03 
       1.181177002795e-01       1.616155152145e+03 
       1.221266221640e-01       1.572060713843e+03 
       1.262567197402e-01       1.527528193109e+03 
       1.305141898968e-01       1.477726778627e+03 
       1.349052027484e-01       1.419270563027e+03 
       1.394359161201e-01       1.351038617328e+03 
       1.441124868442e-01       1.274552953383e+03 
       1.489410800631e-01       1.193706147324e+03 
       1.539278775987e-01       1.113844954986e+03 
       1.590790863779e-01       1.040450514806e+03 
       1.644009478495e-01       9.777668035039e+02 
       1.698997492987e-01       9.277299473323e+02 
       1.755818379464e-01       8.894598527602e+02 
       1.814536387056e-01       8.594497913850e+02 
       1.875216764605e-01       8.327126884918e+02 
       1.937926037288e-01       8.037251218019e+02 
       2.002732345703e-01       7.684866854272e+02 
       2.069705856216e-01       7.266189593087e+02 
       2.138919251668e-01       6.812029566696e+02 
       2.210448312180e-01       6.371067836052e+02 
       2.284372596770e-01       5.986590273016e+02 
       2.360776238015e-01       5.679352757480e+02 
       2.439748864236e-01       5.440326178821e+02 
       2.521386666777e-01       5.234860177887e+02 
       2.605793634242e-01       5.021060690503e+02 
       2.693082981334e-01       4.774245638085e+02 
       2.783378807602e-01       4.500473880829e+02 
       2.876818031601e-01       4.230293279096e+02 
       2.973552659400e-01       3.995174749140e+02 
       3.073752464211e-01       3.803174902181e+02 
       3.177608177653e-01       3.636503199538e+02 
       3.285335325042e-01       3.468875992904e+02 
       3.397178880384e-01       3.287389660737e+02 
       3.513418976134e-01       3.102475536676e+02 
       3.634377985428e-01       2.933286427847e+02 
       3.760429411182e-01       2.786948202564e+02 
       3.892009183754e-01       2.652010574272e+02 
       4.029630213023e-01       2.515537661509e+02 
       4.173901403592e-01       2.378405438720e+02 
       4.325552892222e-01       2.249552413739e+02 
       4.485470120206e-01       2.132086813318e+02 
       4.654740710103e-01       2.020027221102e+02 
       4.834720332049e-01       1.908033981960e+02 
       5.027127475356e-01       1.800718315479e+02 
       5.234183539439e-01       1.700011176587e+02 
       5.458826421665e-01       1.601049190252e+02 
       5.705048023177e-01       1.504355871543e+02 
       5.978450290190e-01       1.410570706003e+02 
       6.287207309535e-01       1.317237803047e+02 
       6.643829030557e-01       1.224261213701e+02 
       7.068621400517e-01       1.129575678867e+02 
       7.597018663167e-01       1.031257085943e+02 
       8.296366180581e-01       9.258189313916e+01 
       9.305522312713e-01       8.084296710795e+01 
       1.090628146677e+00       6.750893561034e+01 
       1.344459231526e+00       5.356243965273e+01 
       1.690134455615e+00       4.142558911260e+01 
       2.127709730039e+00       3.143983535602e+01 
       2.678627697715e+00       2.322303577169e+01 
       3.372192477317e+00       1.662035510893e+01 
       4.245338803155e+00       1.152714299817e+01 
       5.344564900968e+00       7.772094249478e+00 
       6.728408568812e+00       5.115669784873e+00 
       8.470564528211e+00       3.298607484077e+00 
       1.066380893681e+01       2.089093059747e+00 
       1.342494005706e+01       1.302850321710e+00 
       1.690099818965e+01       8.016609494268e-01 
       2.127709610564e+01       4.872699563206e-01 
       2.678627697658e+01       2.929744924046e-01 
       3.372192477317e+01       1.743913559965e-01 
       4.245338803155e+01       1.028704873296e-01 
       5.344564900968e+01       6.017768903610e-02 
       6.728408568812e+01       3.493455182698e-02 
       8.470564528211e+01       2.013878920174e-02 
       1.066380893681e+02       1.153465061663e-02 
       1.342494005706e+02       6.568014940616e-03 
       1.690099818965e+02       3.719862001416e-03 
       2.127709610564e+02       2.096287672325e-03 
